0.523265,1
1.347755,2
2.143039,3
2.931361,1
3.736916,2
4.552109,3
5.359002,1
6.148254,2
6.932154,3
7.729048,1
8.516916,2
9.271565,3
10.055238,1
10.891156,2
11.721270,3
12.445714,1
13.282971,2
14.084240,3
14.911565,1
15.732925,2
16.527800,3
17.320272,1
18.124172,2
18.911633,3
19.720544,1
20.515828,2
21.328526,3
22.140522,1
22.953923,2
23.795646,3
24.585125,1
25.409433,2
26.216327,3
27.050544,1
27.870748,2
28.677642,3
29.478730,1
30.291429,2
31.069297,3
31.887800,1
32.717302,2
33.528889,3
34.314286,1
35.113787,2
35.914921,3
36.698571,1
37.510635,2
38.325533,3
39.111678,1
39.940635,2
40.738662,3
41.538707,1
42.353560,2
43.145193,3
43.949524,1
44.755578,2
45.568163,3
46.393968,1
47.203265,2
48.002449,3
48.747460,1
49.479660,2
50.235079,3
51.027778,1
51.885986,2
52.768345,3
53.596485,1
54.428571,2
55.316735,3
56.159274,1
56.981202,2
57.799660,3
58.606576,1
59.455215,2
60.256780,3
61.059524,1
61.917256,2
62.718095,3
63.559819,1
64.354422,2
65.191020,3
65.989002,1
66.817551,2
67.658141,3
68.430204,1
69.196463,2
70.014966,3
70.775420,1
71.576508,2
72.391156,3
73.172880,1
73.985578,2
74.786667,3
75.568118,1
76.371134,2
77.175896,3
77.961995,1
78.757279,2
79.535147,3
80.289796,1
81.090884,2
81.880363,3
82.646621,1
83.455306,2
84.242993,3
84.974422,1
85.797302,2
86.631451,3
87.434444,1
88.210862,2
88.962449,3
89.693878,1
90.551587,2
91.365714,3
92.219048,1
92.988639,2
93.841519,3
94.655578,1
95.481066,2
96.315351,3
97.146304,1
97.954376,2
98.784490,3
99.618186,1
100.461020,2
101.260998,3
102.113855,1
102.888617,2
103.678095,3
104.473379,1
105.286077,2
106.130431,3
106.934694,1
107.770612,2
108.565896,3
109.458390,1
110.294354,2
111.137506,3
111.909728,1
112.704853,2
113.488526,3
114.240680,1
115.067483,2
115.897596,3
116.762880,1
117.612449,2
118.480567,3
119.310249,1
120.129433,2
120.911791,3
121.731610,1
122.555918,2
123.364263,3
124.231338,1
125.064286,2
125.862971,3
126.601995,1
127.362449,2
128.099683,3
128.883356,1
129.754104,2
130.601633,3
131.431746,1
132.286553,2
133.120726,3
133.983265,1
134.830590,2
135.598163,3
136.418254,1
137.276780,2
138.066236,3
138.895896,1
139.667982,2
140.423673,3
141.300227,1
142.083900,2
142.818798,3
143.593197,1
144.400091,2
145.137324,3
145.946667,1
146.716168,2
147.478662,3
148.248685,1
149.061361,2
149.881859,3
150.672948,1
151.457166,2
152.294875,3
153.078549,1
153.888844,2
154.698141,3
155.515442,1
156.306122,2
157.113673,3
157.943129,1
158.796463,2
159.606236,3
160.343651,1
161.205533,2
161.983401,3
162.786440,1
163.602993,2
164.404331,3
165.222585,1
166.024535,2
166.836372,3
167.600998,1
168.426621,2
169.228027,3
170.071701,1
170.875896,2
171.677800,3
172.488345,1
173.313356,2
174.121633,3
174.847256,1
175.611088,2
176.411315,3
177.200726,1
178.023741,2
178.835283,3
179.584694,1